# temperature[K] recRate[cm**3 s**-1]
1.000000e+01 3.457052e-11
1.016265e+01 3.424562e-11
1.032795e+01 3.392363e-11
1.049593e+01 3.360453e-11
1.066665e+01 3.328829e-11
1.084014e+01 3.297489e-11
1.101646e+01 3.266430e-11
1.119564e+01 3.235651e-11
1.137774e+01 3.205148e-11
1.156280e+01 3.174920e-11
1.175087e+01 3.144964e-11
1.194200e+01 3.115277e-11
1.213624e+01 3.085858e-11
1.233363e+01 3.056705e-11
1.253424e+01 3.027814e-11
1.273811e+01 2.999184e-11
1.294530e+01 2.970813e-11
1.315586e+01 2.942698e-11
1.336984e+01 2.914837e-11
1.358730e+01 2.887229e-11
1.380830e+01 2.859870e-11
1.403289e+01 2.832759e-11
1.426114e+01 2.805893e-11
1.449310e+01 2.779271e-11
1.472883e+01 2.752891e-11
1.496839e+01 2.726750e-11
1.521186e+01 2.700846e-11
1.545928e+01 2.675178e-11
1.571072e+01 2.649743e-11
1.596626e+01 2.624539e-11
1.622595e+01 2.599564e-11
1.648987e+01 2.574817e-11
1.675808e+01 2.550296e-11
1.703065e+01 2.525998e-11
1.730766e+01 2.501921e-11
1.758917e+01 2.478064e-11
1.787526e+01 2.454425e-11
1.816600e+01 2.431002e-11
1.846147e+01 2.407792e-11
1.876175e+01 2.384795e-11
1.906691e+01 2.362009e-11
1.937703e+01 2.339430e-11
1.969220e+01 2.317059e-11
2.001250e+01 2.294893e-11
2.033800e+01 2.272929e-11
2.066880e+01 2.251168e-11
2.100498e+01 2.229605e-11
2.134663e+01 2.208241e-11
2.169384e+01 2.187073e-11
2.204669e+01 2.166100e-11
2.240528e+01 2.145319e-11
2.276970e+01 2.124730e-11
2.314005e+01 2.104330e-11
2.351643e+01 2.084118e-11
2.389893e+01 2.064092e-11
2.428764e+01 2.044251e-11
2.468268e+01 2.024593e-11
2.508415e+01 2.005116e-11
2.549215e+01 1.985819e-11
2.590678e+01 1.966700e-11
2.632815e+01 1.947758e-11
2.675638e+01 1.928991e-11
2.719158e+01 1.910398e-11
2.763385e+01 1.891977e-11
2.808332e+01 1.873726e-11
2.854010e+01 1.855644e-11
2.900430e+01 1.837730e-11
2.947606e+01 1.819983e-11
2.995549e+01 1.802399e-11
3.044272e+01 1.784979e-11
3.093788e+01 1.767721e-11
3.144108e+01 1.750623e-11
3.195248e+01 1.733685e-11
3.247218e+01 1.716903e-11
3.300035e+01 1.700278e-11
3.353710e+01 1.683808e-11
3.408259e+01 1.667491e-11
3.463694e+01 1.651326e-11
3.520031e+01 1.635311e-11
3.577285e+01 1.619447e-11
3.635470e+01 1.603730e-11
3.694601e+01 1.588160e-11
3.754694e+01 1.572735e-11
3.815765e+01 1.557454e-11
3.877828e+01 1.542317e-11
3.940902e+01 1.527321e-11
4.005001e+01 1.512465e-11
4.070142e+01 1.497748e-11
4.136344e+01 1.483169e-11
4.203622e+01 1.468727e-11
4.271994e+01 1.454421e-11
4.341478e+01 1.440248e-11
4.412093e+01 1.426208e-11
4.483856e+01 1.412301e-11
4.556786e+01 1.398523e-11
4.630903e+01 1.384876e-11
4.706225e+01 1.371356e-11
4.782772e+01 1.357964e-11
4.860564e+01 1.344698e-11
4.939622e+01 1.331556e-11
5.019965e+01 1.318539e-11
5.101615e+01 1.305644e-11
5.184594e+01 1.292870e-11
5.268921e+01 1.280217e-11
5.354621e+01 1.267684e-11
5.441714e+01 1.255269e-11
5.530224e+01 1.242970e-11
5.620174e+01 1.230789e-11
5.711586e+01 1.218722e-11
5.804486e+01 1.206769e-11
5.898896e+01 1.194929e-11
5.994843e+01 1.183202e-11
6.092349e+01 1.171585e-11
6.191442e+01 1.160079e-11
6.292146e+01 1.148681e-11
6.394488e+01 1.137392e-11
6.498495e+01 1.126209e-11
6.604194e+01 1.115133e-11
6.711612e+01 1.104162e-11
6.820777e+01 1.093295e-11
6.931717e+01 1.082531e-11
7.044462e+01 1.071869e-11
7.159041e+01 1.061309e-11
7.275484e+01 1.050849e-11
7.393820e+01 1.040489e-11
7.514081e+01 1.030227e-11
7.636298e+01 1.020063e-11
7.760503e+01 1.009996e-11
7.886729e+01 1.000025e-11
8.015007e+01 9.901486e-12
8.145372e+01 9.803667e-12
8.277857e+01 9.706780e-12
8.412497e+01 9.610818e-12
8.549327e+01 9.515772e-12
8.688383e+01 9.421635e-12
8.829700e+01 9.328396e-12
8.973316e+01 9.236049e-12
9.119268e+01 9.144586e-12
9.267593e+01 9.053997e-12
9.418332e+01 8.964275e-12
9.571522e+01 8.875412e-12
9.727203e+01 8.787400e-12
9.885417e+01 8.700231e-12
1.004620e+02 8.613898e-12
1.020961e+02 8.528393e-12
1.037567e+02 8.443708e-12
1.054443e+02 8.359835e-12
1.071593e+02 8.276768e-12
1.089023e+02 8.194498e-12
1.106736e+02 8.113019e-12
1.124737e+02 8.032322e-12
1.143031e+02 7.952401e-12
1.161623e+02 7.873249e-12
1.180517e+02 7.794859e-12
1.199718e+02 7.717222e-12
1.219231e+02 7.640333e-12
1.239062e+02 7.564185e-12
1.259216e+02 7.488770e-12
1.279697e+02 7.414082e-12
1.300511e+02 7.340114e-12
1.321664e+02 7.266860e-12
1.343161e+02 7.194312e-12
1.365008e+02 7.122464e-12
1.387210e+02 7.051310e-12
1.409773e+02 6.980844e-12
1.432703e+02 6.911058e-12
1.456006e+02 6.841946e-12
1.479688e+02 6.773503e-12
1.503755e+02 6.705721e-12
1.528214e+02 6.638595e-12
1.553071e+02 6.572119e-12
1.578331e+02 6.506287e-12
1.604003e+02 6.441092e-12
1.630092e+02 6.376528e-12
1.656606e+02 6.312590e-12
1.683551e+02 6.249272e-12
1.710934e+02 6.186568e-12
1.738762e+02 6.124472e-12
1.767044e+02 6.062979e-12
1.795785e+02 6.002083e-12
1.824993e+02 5.941778e-12
1.854677e+02 5.882059e-12
1.884843e+02 5.822920e-12
1.915501e+02 5.764355e-12
1.946656e+02 5.706360e-12
1.978319e+02 5.648930e-12
2.010496e+02 5.592058e-12
2.043197e+02 5.535739e-12
2.076430e+02 5.479968e-12
2.110203e+02 5.424741e-12
2.144526e+02 5.370052e-12
2.179407e+02 5.315895e-12
2.214855e+02 5.262267e-12
2.250880e+02 5.209161e-12
2.287491e+02 5.156573e-12
2.324697e+02 5.104499e-12
2.362508e+02 5.052932e-12
2.400935e+02 5.001869e-12
2.439986e+02 4.951305e-12
2.479673e+02 4.901234e-12
2.520005e+02 4.851653e-12
2.560993e+02 4.802557e-12
2.602648e+02 4.753940e-12
2.644980e+02 4.705799e-12
2.688001e+02 4.658129e-12
2.731722e+02 4.610925e-12
2.776153e+02 4.564183e-12
2.821308e+02 4.517899e-12
2.867196e+02 4.472069e-12
2.913832e+02 4.426687e-12
2.961225e+02 4.381751e-12
3.009390e+02 4.337254e-12
3.058338e+02 4.293194e-12
3.108082e+02 4.249567e-12
3.158635e+02 4.206367e-12
3.210011e+02 4.163591e-12
3.262222e+02 4.121236e-12
3.315282e+02 4.079296e-12
3.369206e+02 4.037768e-12
3.424006e+02 3.996648e-12
3.479698e+02 3.955933e-12
3.536296e+02 3.915618e-12
3.593814e+02 3.875699e-12
3.652267e+02 3.836173e-12
3.711672e+02 3.797036e-12
3.772042e+02 3.758284e-12
3.833395e+02 3.719913e-12
3.895746e+02 3.681921e-12
3.959110e+02 3.644303e-12
4.023506e+02 3.607055e-12
4.088948e+02 3.570175e-12
4.155455e+02 3.533658e-12
4.223044e+02 3.497501e-12
4.291732e+02 3.461701e-12
4.361538e+02 3.426255e-12
4.432479e+02 3.391158e-12
4.504573e+02 3.356408e-12
4.577841e+02 3.322001e-12
4.652300e+02 3.287933e-12
4.727970e+02 3.254203e-12
4.804870e+02 3.220806e-12
4.883022e+02 3.187739e-12
4.962445e+02 3.154999e-12
5.043159e+02 3.122583e-12
5.125187e+02 3.090487e-12
5.208549e+02 3.058710e-12
5.293266e+02 3.027247e-12
5.379362e+02 2.996095e-12
5.466857e+02 2.965252e-12
5.555776e+02 2.934715e-12
5.646141e+02 2.904480e-12
5.737976e+02 2.874545e-12
5.831305e+02 2.844907e-12
5.926152e+02 2.815563e-12
6.022541e+02 2.786510e-12
6.120498e+02 2.757745e-12
6.220049e+02 2.729266e-12
6.321218e+02 2.701070e-12
6.424034e+02 2.673154e-12
6.528521e+02 2.645515e-12
6.634708e+02 2.618150e-12
6.742622e+02 2.591058e-12
6.852292e+02 2.564235e-12
6.963745e+02 2.537679e-12
7.077011e+02 2.511387e-12
7.192119e+02 2.485357e-12
7.309099e+02 2.459586e-12
7.427982e+02 2.434071e-12
7.548799e+02 2.408811e-12
7.671581e+02 2.383802e-12
7.796360e+02 2.359042e-12
7.923169e+02 2.334529e-12
8.052040e+02 2.310261e-12
8.183007e+02 2.286234e-12
8.316104e+02 2.262447e-12
8.451366e+02 2.238898e-12
8.588829e+02 2.215583e-12
8.728527e+02 2.192501e-12
8.870497e+02 2.169650e-12
9.014776e+02 2.147027e-12
9.161402e+02 2.124630e-12
9.310413e+02 2.102457e-12
9.461848e+02 2.080505e-12
9.615746e+02 2.058773e-12
9.772147e+02 2.037258e-12
9.931092e+02 2.015959e-12
1.009262e+03 1.994872e-12
1.025678e+03 1.973997e-12
1.042361e+03 1.953331e-12
1.059315e+03 1.932871e-12
1.076545e+03 1.912617e-12
1.094055e+03 1.892566e-12
1.111850e+03 1.872715e-12
1.129934e+03 1.853064e-12
1.148312e+03 1.833609e-12
1.166990e+03 1.814350e-12
1.185971e+03 1.795284e-12
1.205261e+03 1.776410e-12
1.224865e+03 1.757724e-12
1.244787e+03 1.739227e-12
1.265034e+03 1.720915e-12
1.285610e+03 1.702788e-12
1.306520e+03 1.684842e-12
1.327771e+03 1.667077e-12
1.349367e+03 1.649491e-12
1.371315e+03 1.632081e-12
1.393619e+03 1.614847e-12
1.416287e+03 1.597786e-12
1.439323e+03 1.580897e-12
1.462733e+03 1.564178e-12
1.486525e+03 1.547627e-12
1.510703e+03 1.531243e-12
1.535275e+03 1.515024e-12
1.560246e+03 1.498969e-12
1.585624e+03 1.483076e-12
1.611414e+03 1.467343e-12
1.637624e+03 1.451768e-12
1.664260e+03 1.436351e-12
1.691330e+03 1.421090e-12
1.718839e+03 1.405982e-12
1.746796e+03 1.391028e-12
1.775208e+03 1.376224e-12
1.804082e+03 1.361570e-12
1.833425e+03 1.347064e-12
1.863246e+03 1.332705e-12
1.893552e+03 1.318491e-12
1.924351e+03 1.304421e-12
1.955651e+03 1.290494e-12
1.987460e+03 1.276707e-12
2.019786e+03 1.263061e-12
2.052638e+03 1.249552e-12
2.086024e+03 1.236180e-12
2.119953e+03 1.222944e-12
2.154435e+03 1.209842e-12
2.189477e+03 1.196873e-12
2.225089e+03 1.184036e-12
2.261280e+03 1.171329e-12
2.298060e+03 1.158751e-12
2.335438e+03 1.146300e-12
2.373424e+03 1.133976e-12
2.412028e+03 1.121778e-12
2.451260e+03 1.109703e-12
2.491130e+03 1.097752e-12
2.531648e+03 1.085921e-12
2.572826e+03 1.074212e-12
2.614673e+03 1.062621e-12
2.657201e+03 1.051149e-12
2.700421e+03 1.039793e-12
2.744343e+03 1.028553e-12
2.788980e+03 1.017428e-12
2.834343e+03 1.006416e-12
2.880444e+03 9.955160e-13
2.927295e+03 9.847276e-13
2.974908e+03 9.740493e-13
3.023295e+03 9.634800e-13
3.072469e+03 9.530187e-13
3.122443e+03 9.426643e-13
3.173230e+03 9.324157e-13
3.224842e+03 9.222719e-13
3.277295e+03 9.122318e-13
3.330600e+03 9.022945e-13
3.384773e+03 8.924589e-13
3.439826e+03 8.827240e-13
3.495776e+03 8.730888e-13
3.552635e+03 8.635524e-13
3.610419e+03 8.541136e-13
3.669142e+03 8.447717e-13
3.728821e+03 8.355256e-13
3.789471e+03 8.263744e-13
3.851107e+03 8.173171e-13
3.913746e+03 8.083529e-13
3.977403e+03 7.994807e-13
4.042096e+03 7.906997e-13
4.107841e+03 7.820090e-13
4.174655e+03 7.734077e-13
4.242556e+03 7.648949e-13
4.311562e+03 7.564697e-13
4.381690e+03 7.481312e-13
4.452959e+03 7.398787e-13
4.525386e+03 7.317112e-13
4.598992e+03 7.236279e-13
4.673795e+03 7.156280e-13
4.749815e+03 7.077106e-13
4.827071e+03 6.998749e-13
4.905584e+03 6.921202e-13
4.985373e+03 6.844456e-13
5.066461e+03 6.768502e-13
5.148867e+03 6.693335e-13
5.232614e+03 6.618944e-13
5.317723e+03 6.545324e-13
5.404216e+03 6.472466e-13
5.492116e+03 6.400362e-13
5.581446e+03 6.329006e-13
5.672229e+03 6.258389e-13
5.764488e+03 6.188505e-13
5.858248e+03 6.119345e-13
5.953533e+03 6.050904e-13
6.050368e+03 5.983173e-13
6.148778e+03 5.916147e-13
6.248788e+03 5.849817e-13
6.350425e+03 5.784176e-13
6.453715e+03 5.719219e-13
6.558686e+03 5.654938e-13
6.665363e+03 5.591326e-13
6.773776e+03 5.528377e-13
6.883952e+03 5.466085e-13
6.995920e+03 5.404442e-13
7.109709e+03 5.343442e-13
7.225349e+03 5.283079e-13
7.342870e+03 5.223347e-13
7.462303e+03 5.164239e-13
7.583678e+03 5.105748e-13
7.707027e+03 5.047870e-13
7.832383e+03 4.990598e-13
7.959777e+03 4.933925e-13
8.089243e+03 4.877846e-13
8.220816e+03 4.822355e-13
8.354528e+03 4.767446e-13
8.490415e+03 4.713113e-13
8.628513e+03 4.659351e-13
8.768856e+03 4.606153e-13
8.911482e+03 4.553515e-13
9.056428e+03 4.501430e-13
9.203732e+03 4.449894e-13
9.353432e+03 4.398900e-13
9.505566e+03 4.348443e-13
9.660175e+03 4.298518e-13
9.817298e+03 4.249120e-13
9.976978e+03 4.200243e-13
1.013925e+04 4.151882e-13
1.030417e+04 4.104032e-13
1.047177e+04 4.056688e-13
1.064209e+04 4.009844e-13
1.081519e+04 3.963497e-13
1.099110e+04 3.917640e-13
1.116987e+04 3.872270e-13
1.135155e+04 3.827380e-13
1.153618e+04 3.782967e-13
1.172382e+04 3.739025e-13
1.191451e+04 3.695550e-13
1.210830e+04 3.652538e-13
1.230524e+04 3.609983e-13
1.250539e+04 3.567881e-13
1.270879e+04 3.526227e-13
1.291550e+04 3.485017e-13
1.312557e+04 3.444247e-13
1.333906e+04 3.403912e-13
1.355602e+04 3.364008e-13
1.377651e+04 3.324530e-13
1.400058e+04 3.285475e-13
1.422830e+04 3.246837e-13
1.445973e+04 3.208614e-13
1.469492e+04 3.170800e-13
1.493393e+04 3.133391e-13
1.517683e+04 3.096384e-13
1.542369e+04 3.059775e-13
1.567455e+04 3.023558e-13
1.592950e+04 2.987732e-13
1.618860e+04 2.952291e-13
1.645191e+04 2.917232e-13
1.671950e+04 2.882551e-13
1.699144e+04 2.848244e-13
1.726781e+04 2.814307e-13
1.754867e+04 2.780737e-13
1.783410e+04 2.747530e-13
1.812418e+04 2.714683e-13
1.841897e+04 2.682191e-13
1.871855e+04 2.650051e-13
1.902301e+04 2.618260e-13
1.933242e+04 2.586814e-13
1.964687e+04 2.555710e-13
1.996642e+04 2.524944e-13
2.029118e+04 2.494512e-13
2.062122e+04 2.464413e-13
2.095662e+04 2.434641e-13
2.129749e+04 2.405194e-13
2.164389e+04 2.376069e-13
2.199593e+04 2.347262e-13
2.235370e+04 2.318770e-13
2.271728e+04 2.290590e-13
2.308678e+04 2.262719e-13
2.346229e+04 2.235153e-13
2.384390e+04 2.207890e-13
2.423173e+04 2.180927e-13
2.462586e+04 2.154260e-13
2.502640e+04 2.127886e-13
2.543346e+04 2.101803e-13
2.584714e+04 2.076008e-13
2.626754e+04 2.050498e-13
2.669478e+04 2.025269e-13
2.712898e+04 2.000319e-13
2.757023e+04 1.975646e-13
2.801867e+04 1.951245e-13
2.847439e+04 1.927116e-13
2.893753e+04 1.903254e-13
2.940820e+04 1.879657e-13
2.988653e+04 1.856323e-13
3.037264e+04 1.833249e-13
3.086665e+04 1.810432e-13
3.136870e+04 1.787869e-13
3.187891e+04 1.765558e-13
3.239743e+04 1.743497e-13
3.292437e+04 1.721683e-13
3.345989e+04 1.700113e-13
3.400412e+04 1.678784e-13
3.455720e+04 1.657696e-13
3.511928e+04 1.636844e-13
3.569049e+04 1.616227e-13
3.627100e+04 1.595842e-13
3.686095e+04 1.575687e-13
3.746050e+04 1.555759e-13
3.806980e+04 1.536056e-13
3.868901e+04 1.516577e-13
3.931829e+04 1.497318e-13
3.995780e+04 1.478277e-13
4.060772e+04 1.459452e-13
4.126821e+04 1.440841e-13
4.193944e+04 1.422442e-13
4.262159e+04 1.404253e-13
4.331483e+04 1.386271e-13
4.401935e+04 1.368494e-13
4.473533e+04 1.350920e-13
4.546295e+04 1.333547e-13
4.620241e+04 1.316374e-13
4.695390e+04 1.299397e-13
4.771761e+04 1.282615e-13
4.849374e+04 1.266027e-13
4.928250e+04 1.249629e-13
5.008408e+04 1.233420e-13
5.089870e+04 1.217398e-13
5.172657e+04 1.201562e-13
5.256791e+04 1.185908e-13
5.342293e+04 1.170436e-13
5.429186e+04 1.155143e-13
5.517492e+04 1.140028e-13
5.607235e+04 1.125089e-13
5.698437e+04 1.110323e-13
5.791123e+04 1.095730e-13
5.885316e+04 1.081307e-13
5.981041e+04 1.067053e-13
6.078323e+04 1.052965e-13
6.177188e+04 1.039043e-13
6.277660e+04 1.025284e-13
6.379767e+04 1.011687e-13
6.483534e+04 9.982493e-14
6.588990e+04 9.849703e-14
6.696160e+04 9.718480e-14
6.805074e+04 9.588807e-14
6.915759e+04 9.460668e-14
7.028244e+04 9.334048e-14
7.142559e+04 9.208930e-14
7.258734e+04 9.085299e-14
7.376798e+04 8.963139e-14
7.496782e+04 8.842434e-14
7.618718e+04 8.723170e-14
7.742637e+04 8.605331e-14
7.868572e+04 8.488903e-14
7.996555e+04 8.373869e-14
8.126619e+04 8.260217e-14
8.258799e+04 8.147930e-14
8.393129e+04 8.036995e-14
8.529644e+04 7.927398e-14
8.668380e+04 7.819124e-14
8.809372e+04 7.712159e-14
8.952657e+04 7.606489e-14
9.098273e+04 7.502101e-14
9.246257e+04 7.398982e-14
9.396648e+04 7.297116e-14
9.549486e+04 7.196492e-14
9.704809e+04 7.097096e-14
9.862658e+04 6.998915e-14
1.002308e+05 6.901935e-14
1.018610e+05 6.806145e-14
1.035178e+05 6.711531e-14
1.052015e+05 6.618081e-14
1.069126e+05 6.525782e-14
1.086516e+05 6.434622e-14
1.104188e+05 6.344588e-14
1.122148e+05 6.255669e-14
1.140400e+05 6.167853e-14
1.158948e+05 6.081127e-14
1.177799e+05 5.995480e-14
1.196956e+05 5.910900e-14
1.216424e+05 5.827376e-14
1.236210e+05 5.744895e-14
1.256317e+05 5.663448e-14
1.276751e+05 5.583022e-14
1.297517e+05 5.503607e-14
1.318621e+05 5.425191e-14
1.340069e+05 5.347764e-14
1.361865e+05 5.271314e-14
1.384016e+05 5.195831e-14
1.406527e+05 5.121305e-14
1.429405e+05 5.047725e-14
1.452654e+05 4.975080e-14
1.476281e+05 4.903360e-14
1.500293e+05 4.832556e-14
1.524696e+05 4.762656e-14
1.549495e+05 4.693652e-14
1.574698e+05 4.625532e-14
1.600310e+05 4.558288e-14
1.626340e+05 4.491909e-14
1.652792e+05 4.426386e-14
1.679675e+05 4.361709e-14
1.706995e+05 4.297869e-14
1.734759e+05 4.234857e-14
1.762975e+05 4.172663e-14
1.791650e+05 4.111278e-14
1.820792e+05 4.050693e-14
1.850407e+05 3.990899e-14
1.880504e+05 3.931888e-14
1.911091e+05 3.873649e-14
1.942175e+05 3.816175e-14
1.973764e+05 3.759457e-14
2.005868e+05 3.703487e-14
2.038493e+05 3.648255e-14
2.071650e+05 3.593754e-14
2.105345e+05 3.539975e-14
2.139589e+05 3.486909e-14
2.174389e+05 3.434550e-14
2.209756e+05 3.382888e-14
2.245698e+05 3.331916e-14
2.282224e+05 3.281625e-14
2.319345e+05 3.232008e-14
2.357069e+05 3.183058e-14
2.395407e+05 3.134765e-14
2.434369e+05 3.087124e-14
2.473964e+05 3.040125e-14
2.514203e+05 2.993763e-14
2.555097e+05 2.948029e-14
2.596656e+05 2.902915e-14
2.638891e+05 2.858416e-14
2.681813e+05 2.814523e-14
2.725433e+05 2.771230e-14
2.769762e+05 2.728528e-14
2.814812e+05 2.686413e-14
2.860596e+05 2.644876e-14
2.907123e+05 2.603910e-14
2.954408e+05 2.563510e-14
3.002462e+05 2.523667e-14
3.051297e+05 2.484376e-14
3.100927e+05 2.445631e-14
3.151363e+05 2.407423e-14
3.202621e+05 2.369748e-14
3.254712e+05 2.332598e-14
3.307650e+05 2.295968e-14
3.361449e+05 2.259851e-14
3.416123e+05 2.224240e-14
3.471687e+05 2.189131e-14
3.528154e+05 2.154516e-14
3.585540e+05 2.120390e-14
3.643859e+05 2.086746e-14
3.703127e+05 2.053579e-14
3.763358e+05 2.020884e-14
3.824570e+05 1.988654e-14
3.886777e+05 1.956883e-14
3.949995e+05 1.925566e-14
4.014242e+05 1.894698e-14
4.079535e+05 1.864272e-14
4.145888e+05 1.834284e-14
4.213322e+05 1.804727e-14
4.281852e+05 1.775597e-14
4.351497e+05 1.746888e-14
4.422274e+05 1.718595e-14
4.494203e+05 1.690713e-14
4.567301e+05 1.663237e-14
4.641589e+05 1.636161e-14
4.717085e+05 1.609480e-14
4.793808e+05 1.583190e-14
4.871780e+05 1.557285e-14
4.951020e+05 1.531761e-14
5.031549e+05 1.506613e-14
5.113388e+05 1.481835e-14
5.196557e+05 1.457424e-14
5.281080e+05 1.433375e-14
5.366977e+05 1.409682e-14
5.454271e+05 1.386342e-14
5.542986e+05 1.363349e-14
5.633143e+05 1.340700e-14
5.724766e+05 1.318390e-14
5.817880e+05 1.296414e-14
5.912508e+05 1.274768e-14
6.008676e+05 1.253448e-14
6.106408e+05 1.232450e-14
6.205729e+05 1.211769e-14
6.306666e+05 1.191401e-14
6.409244e+05 1.171342e-14
6.513491e+05 1.151588e-14
6.619433e+05 1.132135e-14
6.727099e+05 1.112979e-14
6.836516e+05 1.094116e-14
6.947713e+05 1.075542e-14
7.060718e+05 1.057253e-14
7.175561e+05 1.039246e-14
7.292272e+05 1.021516e-14
7.410882e+05 1.004060e-14
7.531420e+05 9.868745e-15
7.653919e+05 9.699554e-15
7.778411e+05 9.532993e-15
7.904928e+05 9.369026e-15
8.033502e+05 9.207617e-15
8.164168e+05 9.048731e-15
8.296959e+05 8.892335e-15
8.431909e+05 8.738393e-15
8.569055e+05 8.586873e-15
8.708431e+05 8.437740e-15
8.850075e+05 8.290962e-15
8.994022e+05 8.146507e-15
9.140311e+05 8.004341e-15
9.288979e+05 7.864434e-15
9.440065e+05 7.726753e-15
9.593608e+05 7.591268e-15
9.749649e+05 7.457948e-15
9.908228e+05 7.326761e-15
1.006939e+06 7.197680e-15
1.023317e+06 7.070673e-15
1.039961e+06 6.945711e-15
1.056876e+06 6.822765e-15
1.074066e+06 6.701807e-15
1.091536e+06 6.582808e-15
1.109290e+06 6.465740e-15
1.127333e+06 6.350576e-15
1.145669e+06 6.237288e-15
1.164303e+06 6.125850e-15
1.183241e+06 6.016234e-15
1.202486e+06 5.908414e-15
1.222045e+06 5.802365e-15
1.241921e+06 5.698059e-15
1.262121e+06 5.595473e-15
1.282650e+06 5.494581e-15
1.303512e+06 5.395358e-15
1.324714e+06 5.297780e-15
1.346261e+06 5.201822e-15
1.368158e+06 5.107461e-15
1.390411e+06 5.014672e-15
1.413026e+06 4.923434e-15
1.436009e+06 4.833722e-15
1.459366e+06 4.745514e-15
1.483103e+06 4.658787e-15
1.507225e+06 4.573520e-15
1.531740e+06 4.489690e-15
1.556654e+06 4.407276e-15
1.581973e+06 4.326256e-15
1.607704e+06 4.246610e-15
1.633854e+06 4.168317e-15
1.660429e+06 4.091356e-15
1.687436e+06 4.015707e-15
1.714882e+06 3.941349e-15
1.742775e+06 3.868264e-15
1.771121e+06 3.796431e-15
1.799929e+06 3.725832e-15
1.829205e+06 3.656447e-15
1.858957e+06 3.588258e-15
1.889193e+06 3.521246e-15
1.919921e+06 3.455394e-15
1.951148e+06 3.390682e-15
1.982884e+06 3.327093e-15
2.015136e+06 3.264610e-15
2.047912e+06 3.203216e-15
2.081222e+06 3.142892e-15
2.115073e+06 3.083624e-15
2.149475e+06 3.025393e-15
2.184436e+06 2.968183e-15
2.219966e+06 2.911979e-15
2.256074e+06 2.856765e-15
2.292769e+06 2.802524e-15
2.330061e+06 2.749241e-15
